x [m],head under wg layer analytical,head above wg layer analytical,head under wg layer modflow,head above wg layer modflow
0.125,0.286141,0.285622,0,0
0.25,0.286136,0.285619,0.28607,0.285493
0.375,0.286126,0.285614,0.286066,0.285492
0.5,0.286114,0.285607,0.286059,0.285488
0.625,0.286098,0.285599,0.286048,0.285483
0.75,0.28608,0.285589,0.286034,0.285475
0.875,0.286059,0.285577,0.286017,0.285467
1,0.286036,0.285563,0.285997,0.285456
1.125,0.286012,0.285548,0.285975,0.285444
1.25,0.285985,0.285532,0.285952,0.285431
1.375,0.285957,0.285514,0.285926,0.285416
1.5,0.285928,0.285495,0.285899,0.285399
1.625,0.285898,0.285474,0.28587,0.285381
1.75,0.285866,0.285453,0.28584,0.285362
1.875,0.285834,0.28543,0.285809,0.285342
2,0.2858,0.285406,0.285777,0.285321
2.125,0.285766,0.285382,0.285744,0.285299
2.25,0.285731,0.285356,0.28571,0.285275
2.375,0.285696,0.28533,0.285676,0.285251
2.5,0.28566,0.285302,0.285641,0.285226
2.625,0.285623,0.285274,0.285605,0.2852
2.75,0.285586,0.285245,0.285569,0.285173
2.875,0.285549,0.285216,0.285532,0.285145
3,0.285511,0.285186,0.285495,0.285117
3.125,0.285472,0.285155,0.285457,0.285088
3.25,0.285434,0.285124,0.285419,0.285058
3.375,0.285395,0.285092,0.28538,0.285028
3.5,0.285355,0.285059,0.285342,0.284997
3.625,0.285316,0.285026,0.285302,0.284966
3.75,0.285276,0.284993,0.285263,0.284934
3.875,0.285236,0.284959,0.285223,0.284902
4,0.285195,0.284925,0.285183,0.284869
4.125,0.285155,0.28489,0.285143,0.284836
4.25,0.285114,0.284855,0.285102,0.284802
4.375,0.285072,0.28482,0.285061,0.284768
4.5,0.285031,0.284784,0.28502,0.284733
4.625,0.28499,0.284748,0.284979,0.284698
4.75,0.284948,0.284712,0.284938,0.284663
4.875,0.284906,0.284675,0.284896,0.284627
5,0.284864,0.284638,0.284854,0.284591
5.125,0.284822,0.284601,0.284813,0.284555
5.25,0.28478,0.284563,0.28477,0.284519
5.375,0.284737,0.284525,0.284728,0.284482
5.5,0.284694,0.284487,0.284686,0.284445
5.625,0.284652,0.284449,0.284643,0.284407
5.75,0.284609,0.28441,0.284601,0.28437
5.875,0.284566,0.284372,0.284558,0.284332
6,0.284523,0.284333,0.284515,0.284293
6.125,0.28448,0.284293,0.284472,0.284255
6.25,0.284436,0.284254,0.284429,0.284216
6.375,0.284393,0.284214,0.284385,0.284178
6.5,0.284349,0.284175,0.284342,0.284139
6.625,0.284306,0.284135,0.284298,0.284099
6.75,0.284262,0.284094,0.284255,0.28406
6.875,0.284218,0.284054,0.284211,0.28402
7,0.284174,0.284014,0.284167,0.28398
7.125,0.28413,0.283973,0.284124,0.28394
7.25,0.284086,0.283932,0.28408,0.2839
7.375,0.284042,0.283891,0.284036,0.28386
7.5,0.283998,0.28385,0.283991,0.283819
7.625,0.283953,0.283809,0.283947,0.283779
7.75,0.283909,0.283767,0.283903,0.283738
7.875,0.283864,0.283726,0.283859,0.283697
8,0.28382,0.283684,0.283814,0.283656
8.125,0.283775,0.283642,0.28377,0.283614
8.25,0.283731,0.2836,0.283725,0.283573
8.375,0.283686,0.283558,0.283681,0.283531
8.5,0.283641,0.283516,0.283636,0.28349
8.625,0.283596,0.283474,0.283591,0.283448
8.75,0.283551,0.283431,0.283546,0.283406
8.875,0.283506,0.283389,0.283501,0.283364
9,0.283461,0.283346,0.283457,0.283322
9.125,0.283416,0.283303,0.283412,0.28328
9.25,0.283371,0.28326,0.283366,0.283237
9.375,0.283326,0.283218,0.283321,0.283195
9.5,0.283281,0.283174,0.283276,0.283152
9.625,0.283235,0.283131,0.283231,0.28311
9.75,0.28319,0.283088,0.283186,0.283067
9.875,0.283145,0.283045,0.283141,0.283024
10,0.283099,0.283001,0.283095,0.282981
10.125,0.283054,0.282958,0.28305,0.282938
10.25,0.283008,0.282914,0.283004,0.282895
10.375,0.282963,0.282871,0.282959,0.282851
10.5,0.282917,0.282827,0.282913,0.282808
10.625,0.282872,0.282783,0.282868,0.282765
10.75,0.282826,0.282739,0.282822,0.282721
10.875,0.28278,0.282695,0.282777,0.282678
11,0.282735,0.282651,0.282731,0.282634
11.125,0.282689,0.282607,0.282685,0.28259
11.25,0.282643,0.282563,0.28264,0.282546
11.375,0.282597,0.282519,0.282594,0.282502
11.5,0.282551,0.282475,0.282548,0.282458
11.625,0.282505,0.28243,0.282502,0.282414
11.75,0.28246,0.282386,0.282456,0.28237
11.875,0.282414,0.282342,0.28241,0.282326
12,0.282368,0.282297,0.282364,0.282282
12.125,0.282322,0.282252,0.282319,0.282238
12.25,0.282275,0.282208,0.282273,0.282193
12.375,0.282229,0.282163,0.282226,0.282149
12.5,0.282183,0.282118,0.28218,0.282104
12.625,0.282137,0.282073,0.282134,0.28206
12.75,0.282091,0.282029,0.282088,0.282015
12.875,0.282045,0.281984,0.282042,0.281971
13,0.281999,0.281939,0.281996,0.281926
13.125,0.281952,0.281894,0.28195,0.281881
13.25,0.281906,0.281849,0.281904,0.281836
13.375,0.28186,0.281804,0.281857,0.281791
13.5,0.281814,0.281758,0.281811,0.281747
13.625,0.281767,0.281713,0.281765,0.281702
13.75,0.281721,0.281668,0.281718,0.281657
13.875,0.281674,0.281623,0.281672,0.281612
14,0.281628,0.281577,0.281626,0.281566
14.125,0.281582,0.281532,0.281579,0.281521
14.25,0.281535,0.281487,0.281533,0.281476
14.375,0.281489,0.281441,0.281487,0.281431
14.5,0.281442,0.281396,0.28144,0.281386
14.625,0.281396,0.28135,0.281394,0.28134
14.75,0.281349,0.281305,0.281347,0.281295
14.875,0.281303,0.281259,0.281301,0.28125
15,0.281256,0.281213,0.281254,0.281204
15.125,0.28121,0.281168,0.281208,0.281159
15.25,0.281163,0.281122,0.281161,0.281113
15.375,0.281116,0.281076,0.281115,0.281068
15.5,0.28107,0.281031,0.281068,0.281022
15.625,0.281023,0.280985,0.281021,0.280976
15.75,0.280977,0.280939,0.280975,0.280931
15.875,0.28093,0.280893,0.280928,0.280885
16,0.280883,0.280847,0.280882,0.280839
16.125,0.280837,0.280801,0.280835,0.280794
16.25,0.28079,0.280756,0.280788,0.280748
16.375,0.280743,0.28071,0.280741,0.280702
16.5,0.280696,0.280664,0.280695,0.280656
16.625,0.28065,0.280618,0.280648,0.28061
16.75,0.280603,0.280572,0.280601,0.280565
16.875,0.280556,0.280525,0.280555,0.280519
17,0.280509,0.280479,0.280508,0.280473
17.125,0.280463,0.280433,0.280461,0.280427
17.25,0.280416,0.280387,0.280414,0.280381
17.375,0.280369,0.280341,0.280368,0.280335
17.5,0.280322,0.280295,0.280321,0.280289
17.625,0.280275,0.280249,0.280274,0.280243
17.75,0.280228,0.280202,0.280227,0.280197
17.875,0.280182,0.280156,0.28018,0.28015
18,0.280135,0.28011,0.280133,0.280104
18.125,0.280088,0.280064,0.280087,0.280058
18.25,0.280041,0.280017,0.28004,0.280012
18.375,0.279994,0.279971,0.279993,0.279966
18.5,0.279947,0.279925,0.279946,0.27992
18.625,0.2799,0.279878,0.279899,0.279873
18.75,0.279853,0.279832,0.279852,0.279827
18.875,0.279806,0.279786,0.279805,0.279781
19,0.279759,0.279739,0.279758,0.279734
19.125,0.279712,0.279693,0.279711,0.279688
19.25,0.279665,0.279646,0.279664,0.279642
19.375,0.279618,0.2796,0.279617,0.279596
19.5,0.279571,0.279553,0.279571,0.279549
19.625,0.279524,0.279507,0.279524,0.279503
19.75,0.279477,0.27946,0.279477,0.279456
19.875,0.279431,0.279414,0.27943,0.27941
20,0.279384,0.279367,0.279383,0.279364
20.125,0.279336,0.279321,0.279336,0.279317
20.25,0.279289,0.279274,0.279289,0.279271
20.375,0.279242,0.279228,0.279242,0.279224
20.5,0.279195,0.279181,0.279195,0.279178
20.625,0.279148,0.279135,0.279148,0.279131
20.75,0.279101,0.279088,0.279101,0.279085
20.875,0.279054,0.279041,0.279054,0.279038
21,0.279007,0.278995,0.279007,0.278992
21.125,0.27896,0.278948,0.27896,0.278945
21.25,0.278913,0.278902,0.278912,0.278899
21.375,0.278866,0.278855,0.278865,0.278852
21.5,0.278819,0.278808,0.278818,0.278806
21.625,0.278772,0.278762,0.278771,0.278759
21.75,0.278725,0.278715,0.278724,0.278713
21.875,0.278678,0.278668,0.278677,0.278666
22,0.278631,0.278622,0.27863,0.278619
22.125,0.278584,0.278575,0.278583,0.278573
22.25,0.278537,0.278528,0.278536,0.278526
22.375,0.278489,0.278482,0.278489,0.27848
22.5,0.278442,0.278435,0.278442,0.278433
22.625,0.278395,0.278388,0.278395,0.278386
22.75,0.278348,0.278341,0.278348,0.27834
22.875,0.278301,0.278295,0.278301,0.278293
23,0.278254,0.278248,0.278253,0.278246
23.125,0.278207,0.278201,0.278206,0.2782
23.25,0.27816,0.278155,0.278159,0.278153
23.375,0.278113,0.278108,0.278112,0.278106
23.5,0.278065,0.278061,0.278065,0.27806
23.625,0.278018,0.278014,0.278018,0.278013
23.75,0.277971,0.277968,0.277971,0.277966
23.875,0.277924,0.277921,0.277924,0.27792
24,0.277877,0.277874,0.277877,0.277873
24.125,0.27783,0.277827,0.27783,0.277826
24.25,0.277783,0.277781,0.277782,0.27778
24.375,0.277736,0.277734,0.277735,0.277733
24.5,0.277689,0.277687,0.277688,0.277686
24.625,0.277641,0.27764,0.277641,0.27764
24.75,0.277594,0.277594,0.277594,0.277593
24.875,0.277547,0.277547,0.277547,0.277546
25,0.2775,0.2775,0.2775,0.2775
25.125,0.277453,0.277453,0.277453,0.277453
25.25,0.277406,0.277406,0.277406,0.277406
25.375,0.277359,0.27736,0.277358,0.27736
25.5,0.277311,0.277313,0.277311,0.277313
25.625,0.277264,0.277266,0.277264,0.277266
25.75,0.277217,0.277219,0.277217,0.277219
25.875,0.27717,0.277173,0.27717,0.277173
26,0.277123,0.277126,0.277123,0.277126
26.125,0.277076,0.277079,0.277076,0.277079
26.25,0.277029,0.277032,0.277029,0.277033
26.375,0.276982,0.276986,0.276982,0.276986
26.5,0.276935,0.276939,0.276935,0.276939
26.625,0.276887,0.276892,0.276887,0.276893
26.75,0.27684,0.276845,0.27684,0.276846
26.875,0.276793,0.276799,0.276793,0.276799
27,0.276746,0.276752,0.276746,0.276753
27.125,0.276699,0.276705,0.276699,0.276706
27.25,0.276652,0.276659,0.276652,0.276659
27.375,0.276605,0.276612,0.276605,0.276613
27.5,0.276558,0.276565,0.276558,0.276566
27.625,0.276511,0.276518,0.276511,0.27652
27.75,0.276463,0.276472,0.276464,0.276473
27.875,0.276416,0.276425,0.276416,0.276426
28,0.276369,0.276378,0.276369,0.27638
28.125,0.276322,0.276332,0.276322,0.276333
28.25,0.276275,0.276285,0.276275,0.276287
28.375,0.276228,0.276238,0.276228,0.27624
28.5,0.276181,0.276192,0.276181,0.276193
28.625,0.276134,0.276145,0.276134,0.276147
28.75,0.276087,0.276098,0.276087,0.2761
28.875,0.27604,0.276052,0.27604,0.276054
29,0.275993,0.276005,0.275993,0.276007
29.125,0.275946,0.275959,0.275946,0.275961
29.25,0.275899,0.275912,0.275899,0.275914
29.375,0.275852,0.275865,0.275852,0.275868
29.5,0.275805,0.275819,0.275805,0.275821
29.625,0.275758,0.275772,0.275758,0.275775
29.75,0.275711,0.275726,0.275711,0.275728
29.875,0.275664,0.275679,0.275664,0.275682
30,0.275616,0.275633,0.275617,0.275635
30.125,0.275569,0.275586,0.27557,0.275589
30.25,0.275523,0.27554,0.275523,0.275542
30.375,0.275476,0.275493,0.275476,0.275496
30.5,0.275429,0.275447,0.275429,0.27545
30.625,0.275382,0.2754,0.275382,0.275403
30.75,0.275335,0.275354,0.275335,0.275357
30.875,0.275288,0.275307,0.275288,0.275311
31,0.275241,0.275261,0.275241,0.275264
31.125,0.275194,0.275214,0.275194,0.275218
31.25,0.275147,0.275168,0.275147,0.275172
31.375,0.2751,0.275122,0.2751,0.275125
31.5,0.275053,0.275075,0.275054,0.275079
31.625,0.275006,0.275029,0.275007,0.275033
31.75,0.274959,0.274983,0.27496,0.274987
31.875,0.274912,0.274936,0.274913,0.274941
32,0.274865,0.27489,0.274866,0.274894
32.125,0.274818,0.274844,0.274819,0.274848
32.25,0.274772,0.274798,0.274772,0.274802
32.375,0.274725,0.274751,0.274725,0.274756
32.5,0.274678,0.274705,0.274679,0.27471
32.625,0.274631,0.274659,0.274632,0.274664
32.75,0.274584,0.274613,0.274585,0.274618
32.875,0.274537,0.274567,0.274538,0.274572
33,0.274491,0.274521,0.274491,0.274526
33.125,0.274444,0.274475,0.274445,0.27448
33.25,0.274397,0.274428,0.274398,0.274434
33.375,0.27435,0.274382,0.274351,0.274388
33.5,0.274304,0.274336,0.274304,0.274342
33.625,0.274257,0.27429,0.274258,0.274296
33.75,0.27421,0.274244,0.274211,0.27425
33.875,0.274163,0.274199,0.274164,0.274205
34,0.274117,0.274153,0.274118,0.274159
34.125,0.27407,0.274107,0.274071,0.274113
34.25,0.274023,0.274061,0.274024,0.274067
34.375,0.273977,0.274015,0.273978,0.274022
34.5,0.27393,0.273969,0.273931,0.273976
34.625,0.273884,0.273924,0.273885,0.27393
34.75,0.273837,0.273878,0.273838,0.273885
34.875,0.27379,0.273832,0.273791,0.273839
35,0.273744,0.273787,0.273745,0.273794
35.125,0.273697,0.273741,0.273698,0.273748
35.25,0.273651,0.273695,0.273652,0.273703
35.375,0.273604,0.27365,0.273605,0.273658
35.5,0.273558,0.273604,0.273559,0.273612
35.625,0.273511,0.273559,0.273512,0.273567
35.75,0.273465,0.273513,0.273466,0.273522
35.875,0.273418,0.273468,0.27342,0.273476
36,0.273372,0.273423,0.273373,0.273431
36.125,0.273326,0.273377,0.273327,0.273386
36.25,0.273279,0.273332,0.27328,0.273341
36.375,0.273233,0.273287,0.273234,0.273296
36.5,0.273186,0.273242,0.273188,0.273251
36.625,0.27314,0.273196,0.273141,0.273206
36.75,0.273094,0.273151,0.273095,0.273161
36.875,0.273048,0.273106,0.273049,0.273116
37,0.273001,0.273061,0.273003,0.273071
37.125,0.272955,0.273016,0.272957,0.273027
37.25,0.272909,0.272971,0.27291,0.272982
37.375,0.272863,0.272927,0.272864,0.272937
37.5,0.272817,0.272882,0.272818,0.272893
37.625,0.272771,0.272837,0.272772,0.272848
37.75,0.272725,0.272792,0.272726,0.272804
37.875,0.272678,0.272748,0.27268,0.272759
38,0.272632,0.272703,0.272634,0.272715
38.125,0.272586,0.272658,0.272588,0.272671
38.25,0.27254,0.272614,0.272542,0.272626
38.375,0.272495,0.27257,0.272496,0.272582
38.5,0.272449,0.272525,0.27245,0.272538
38.625,0.272403,0.272481,0.272404,0.272494
38.75,0.272357,0.272437,0.272359,0.27245
38.875,0.272311,0.272393,0.272313,0.272406
39,0.272265,0.272349,0.272267,0.272362
39.125,0.27222,0.272305,0.272221,0.272319
39.25,0.272174,0.272261,0.272176,0.272275
39.375,0.272128,0.272217,0.27213,0.272231
39.5,0.272083,0.272173,0.272085,0.272188
39.625,0.272037,0.272129,0.272039,0.272144
39.75,0.271992,0.272086,0.271994,0.272101
39.875,0.271946,0.272042,0.271948,0.272058
40,0.271901,0.271999,0.271903,0.272015
40.125,0.271855,0.271955,0.271857,0.271972
40.25,0.27181,0.271912,0.271812,0.271929
40.375,0.271765,0.271869,0.271767,0.271886
40.5,0.271719,0.271826,0.271721,0.271843
40.625,0.271674,0.271782,0.271676,0.2718
40.75,0.271629,0.27174,0.271631,0.271758
40.875,0.271584,0.271697,0.271586,0.271715
41,0.271539,0.271654,0.271541,0.271673
41.125,0.271494,0.271611,0.271496,0.271631
41.25,0.271449,0.271569,0.271451,0.271588
41.375,0.271404,0.271526,0.271406,0.271546
41.5,0.271359,0.271484,0.271361,0.271504
41.625,0.271314,0.271442,0.271317,0.271463
41.75,0.271269,0.2714,0.271272,0.271421
41.875,0.271225,0.271358,0.271227,0.271379
42,0.27118,0.271316,0.271183,0.271338
42.125,0.271136,0.271274,0.271138,0.271297
42.25,0.271091,0.271233,0.271094,0.271256
42.375,0.271047,0.271191,0.27105,0.271215
42.5,0.271002,0.27115,0.271005,0.271174
42.625,0.270958,0.271109,0.270961,0.271133
42.75,0.270914,0.271068,0.270917,0.271093
42.875,0.27087,0.271027,0.270873,0.271052
43,0.270826,0.270986,0.270829,0.271012
43.125,0.270782,0.270946,0.270785,0.270972
43.25,0.270738,0.270906,0.270741,0.270932
43.375,0.270694,0.270865,0.270698,0.270893
43.5,0.270651,0.270825,0.270654,0.270853
43.625,0.270607,0.270786,0.270611,0.270814
43.75,0.270564,0.270746,0.270567,0.270775
43.875,0.27052,0.270707,0.270524,0.270736
44,0.270477,0.270667,0.270481,0.270697
44.125,0.270434,0.270628,0.270438,0.270659
44.25,0.270391,0.27059,0.270395,0.270621
44.375,0.270348,0.270551,0.270352,0.270583
44.5,0.270306,0.270513,0.270309,0.270545
44.625,0.270263,0.270475,0.270267,0.270508
44.75,0.27022,0.270437,0.270224,0.270471
44.875,0.270178,0.270399,0.270182,0.270434
45,0.270136,0.270362,0.27014,0.270397
45.125,0.270094,0.270325,0.270098,0.270361
45.25,0.270052,0.270288,0.270056,0.270325
45.375,0.27001,0.270252,0.270015,0.27029
45.5,0.269969,0.270216,0.269973,0.270254
45.625,0.269928,0.27018,0.269932,0.270219
45.75,0.269886,0.270145,0.269891,0.270185
45.875,0.269845,0.27011,0.26985,0.270151
46,0.269805,0.270075,0.26981,0.270117
46.125,0.269764,0.270041,0.269769,0.270084
46.25,0.269724,0.270007,0.269729,0.270051
46.375,0.269684,0.269974,0.26969,0.270018
46.5,0.269645,0.269941,0.26965,0.269987
46.625,0.269605,0.269908,0.269611,0.269955
46.75,0.269566,0.269876,0.269572,0.269924
46.875,0.269528,0.269845,0.269534,0.269894
47,0.269489,0.269814,0.269495,0.269864
47.125,0.269451,0.269784,0.269458,0.269836
47.25,0.269414,0.269755,0.26942,0.269807
47.375,0.269377,0.269726,0.269384,0.26978
47.5,0.26934,0.269698,0.269347,0.269753
47.625,0.269304,0.26967,0.269312,0.269727
47.75,0.269269,0.269644,0.269276,0.269702
47.875,0.269234,0.269618,0.269242,0.269677
48,0.2692,0.269594,0.269208,0.269654
48.125,0.269166,0.26957,0.269175,0.269632
48.25,0.269134,0.269547,0.269143,0.26961
48.375,0.269102,0.269526,0.269112,0.26959
48.5,0.269072,0.269505,0.269083,0.269571
48.625,0.269043,0.269486,0.269054,0.269553
48.75,0.269015,0.269468,0.269027,0.269537
48.875,0.268988,0.269452,0.269001,0.269522
49,0.268964,0.269437,0.268977,0.269508
49.125,0.268941,0.269423,0.268955,0.269496
49.25,0.26892,0.269411,0.268936,0.269486
49.375,0.268902,0.269401,0.268919,0.269477
49.5,0.268886,0.269393,0.268905,0.26947
49.625,0.268874,0.269386,0.268894,0.269465
49.75,0.268864,0.269381,0.268886,0.269461
49.875,0.268859,0.269378,0.268882,0.269459
50,0.268857,0.269377,0,0
